1-D Projection: /home/liu/deTombe2008-1/Farman_0003.smv
Pixels
Intensity
        629
 5.0000000E-01  2.1706677E+02
 1.5000000E+00  2.1261906E+02
 2.5000000E+00  2.0955049E+02
 3.5000000E+00  2.1046935E+02
 4.5000000E+00  2.1250920E+02
 5.5000000E+00  2.1891434E+02
 6.5000000E+00  2.2311523E+02
 7.5000000E+00  2.2059789E+02
 8.5000000E+00  2.2167128E+02
 9.5000000E+00  2.2338809E+02
 1.0500000E+01  2.2499458E+02
 1.1500000E+01  2.2068726E+02
 1.2500000E+01  2.1914545E+02
 1.3500000E+01  2.1756699E+02
 1.4500000E+01  2.1631015E+02
 1.5500000E+01  2.2048531E+02
 1.6500000E+01  2.2477719E+02
 1.7500000E+01  2.2110304E+02
 1.8500000E+01  2.1993391E+02
 1.9500000E+01  2.1456975E+02
 2.0500000E+01  2.1222292E+02
 2.1500000E+01  2.1325331E+02
 2.2500000E+01  2.1837704E+02
 2.3500000E+01  2.1693266E+02
 2.4500000E+01  2.1732953E+02
 2.5500000E+01  2.1880281E+02
 2.6500000E+01  2.1892657E+02
 2.7500000E+01  2.1817030E+02
 2.8500000E+01  2.1731374E+02
 2.9500000E+01  2.1960657E+02
 3.0500000E+01  2.2299994E+02
 3.1500000E+01  2.1502385E+02
 3.2500000E+01  2.1732803E+02
 3.3500000E+01  2.1930536E+02
 3.4500000E+01  2.1901103E+02
 3.5500000E+01  2.2156236E+02
 3.6500000E+01  2.2320123E+02
 3.7500000E+01  2.2375993E+02
 3.8500000E+01  2.2577304E+02
 3.9500000E+01  2.3352377E+02
 4.0500000E+01  2.2931441E+02
 4.1500000E+01  2.2663829E+02
 4.2500000E+01  2.2104541E+02
 4.3500000E+01  2.2165001E+02
 4.4500000E+01  2.2230130E+02
 4.5500000E+01  2.2052252E+02
 4.6500000E+01  2.2343500E+02
 4.7500000E+01  2.2409059E+02
 4.8500000E+01  2.2627716E+02
 4.9500000E+01  2.2887238E+02
 5.0500000E+01  2.2935283E+02
 5.1500000E+01  2.3113766E+02
 5.2500000E+01  2.2802025E+02
 5.3500000E+01  2.2839481E+02
 5.4500000E+01  2.2995004E+02
 5.5500000E+01  2.3089023E+02
 5.6500000E+01  2.2737383E+02
 5.7500000E+01  2.3022958E+02
 5.8500000E+01  2.3094945E+02
 5.9500000E+01  2.3038370E+02
 6.0500000E+01  2.2799507E+02
 6.1500000E+01  2.2765421E+02
 6.2500000E+01  2.3042282E+02
 6.3500000E+01  2.2874174E+02
 6.4500000E+01  2.3624077E+02
 6.5500000E+01  2.3901807E+02
 6.6500000E+01  2.3818517E+02
 6.7500000E+01  2.3876834E+02
 6.8500000E+01  2.3825104E+02
 6.9500000E+01  2.4277315E+02
 7.0500000E+01  2.4572983E+02
 7.1500000E+01  2.4688863E+02
 7.2500000E+01  2.4446619E+02
 7.3500000E+01  2.4243892E+02
 7.4500000E+01  2.4168860E+02
 7.5500000E+01  2.4411452E+02
 7.6500000E+01  2.4553394E+02
 7.7500000E+01  2.4491304E+02
 7.8500000E+01  2.4796223E+02
 7.9500000E+01  2.5068045E+02
 8.0500000E+01  2.5002034E+02
 8.1500000E+01  2.5197592E+02
 8.2500000E+01  2.5441139E+02
 8.3500000E+01  2.5394122E+02
 8.4500000E+01  2.5399443E+02
 8.5500000E+01  2.5776456E+02
 8.6500000E+01  2.5785428E+02
 8.7500000E+01  2.6084406E+02
 8.8500000E+01  2.6807071E+02
 8.9500000E+01  2.6973035E+02
 9.0500000E+01  2.6665973E+02
 9.1500000E+01  2.6802255E+02
 9.2500000E+01  2.6706635E+02
 9.3500000E+01  2.7084036E+02
 9.4500000E+01  2.7177158E+02
 9.5500000E+01  2.8305447E+02
 9.6500000E+01  2.9383224E+02
 9.7500000E+01  3.0028134E+02
 9.8500000E+01  3.0060696E+02
 9.9500000E+01  2.9988760E+02
 1.0050000E+02  3.0473029E+02
 1.0150000E+02  3.0947467E+02
 1.0250000E+02  3.1811603E+02
 1.0350000E+02  3.2918240E+02
 1.0450000E+02  3.4746066E+02
 1.0550000E+02  3.5401166E+02
 1.0650000E+02  3.6019424E+02
 1.0750000E+02  3.6820880E+02
 1.0850000E+02  3.7552850E+02
 1.0950000E+02  3.8315979E+02
 1.1050000E+02  3.8645337E+02
 1.1150000E+02  3.8825476E+02
 1.1250000E+02  3.8800800E+02
 1.1350000E+02  3.8806226E+02
 1.1450000E+02  3.8924823E+02
 1.1550000E+02  3.8241928E+02
 1.1650000E+02  3.7617615E+02
 1.1750000E+02  3.7598569E+02
 1.1850000E+02  3.7114056E+02
 1.1950000E+02  3.5964935E+02
 1.2050000E+02  3.5215543E+02
 1.2150000E+02  3.5251196E+02
 1.2250000E+02  3.4774881E+02
 1.2350000E+02  3.4507190E+02
 1.2450000E+02  3.3776230E+02
 1.2550000E+02  3.3845261E+02
 1.2650000E+02  3.4448987E+02
 1.2750000E+02  3.4127240E+02
 1.2850000E+02  3.3391632E+02
 1.2950000E+02  3.2751160E+02
 1.3050000E+02  3.2496951E+02
 1.3150000E+02  3.2598013E+02
 1.3250000E+02  3.3353726E+02
 1.3350000E+02  3.3108429E+02
 1.3450000E+02  3.2722433E+02
 1.3550000E+02  3.2504721E+02
 1.3650000E+02  3.2487506E+02
 1.3750000E+02  3.2330383E+02
 1.3850000E+02  3.3436810E+02
 1.3950000E+02  3.3502817E+02
 1.4050000E+02  3.3510098E+02
 1.4150000E+02  3.3335986E+02
 1.4250000E+02  3.4597186E+02
 1.4350000E+02  3.4222165E+02
 1.4450000E+02  3.4040060E+02
 1.4550000E+02  3.3897995E+02
 1.4650000E+02  3.3088403E+02
 1.4750000E+02  3.3822504E+02
 1.4850000E+02  3.4077005E+02
 1.4950000E+02  3.4326767E+02
 1.5050000E+02  3.4181516E+02
 1.5150000E+02  3.4634164E+02
 1.5250000E+02  3.4726706E+02
 1.5350000E+02  3.5360944E+02
 1.5450000E+02  3.5178564E+02
 1.5550000E+02  3.5039087E+02
 1.5650000E+02  3.5334970E+02
 1.5750000E+02  3.5421255E+02
 1.5850000E+02  3.5546405E+02
 1.5950000E+02  3.5936014E+02
 1.6050000E+02  3.5775378E+02
 1.6150000E+02  3.6275821E+02
 1.6250000E+02  3.6712180E+02
 1.6350000E+02  3.6946356E+02
 1.6450000E+02  3.7004233E+02
 1.6550000E+02  3.7288086E+02
 1.6650000E+02  3.7732812E+02
 1.6750000E+02  3.8178952E+02
 1.6850000E+02  3.8495432E+02
 1.6950000E+02  3.8679926E+02
 1.7050000E+02  3.9796118E+02
 1.7150000E+02  4.0233911E+02
 1.7250000E+02  4.1223517E+02
 1.7350000E+02  4.1602457E+02
 1.7450000E+02  4.1984805E+02
 1.7550000E+02  4.1933264E+02
 1.7650000E+02  4.2420468E+02
 1.7750000E+02  4.2990384E+02
 1.7850000E+02  4.4611124E+02
 1.7950000E+02  4.5514276E+02
 1.8050000E+02  4.6397363E+02
 1.8150000E+02  4.7180255E+02
 1.8250000E+02  4.8643756E+02
 1.8350000E+02  5.1096063E+02
 1.8450000E+02  5.3012415E+02
 1.8550000E+02  5.5306689E+02
 1.8650000E+02  5.7659039E+02
 1.8750000E+02  5.9955646E+02
 1.8850000E+02  6.2399481E+02
 1.8950000E+02  6.6745380E+02
 1.9050000E+02  7.0841553E+02
 1.9150000E+02  7.6489429E+02
 1.9250000E+02  8.1725024E+02
 1.9350000E+02  8.6794403E+02
 1.9450000E+02  9.2500909E+02
 1.9550000E+02  9.6684210E+02
 1.9650000E+02  9.8924341E+02
 1.9750000E+02  1.0087554E+03
 1.9850000E+02  9.9759863E+02
 1.9950000E+02  9.6319263E+02
 2.0050000E+02  9.2348724E+02
 2.0150000E+02  8.8150977E+02
 2.0250000E+02  8.1480005E+02
 2.0350000E+02  7.6480817E+02
 2.0450000E+02  7.3459717E+02
 2.0550000E+02  6.9842236E+02
 2.0650000E+02  6.6455835E+02
 2.0750000E+02  6.5579767E+02
 2.0850000E+02  6.4821484E+02
 2.0950000E+02  6.2818164E+02
 2.1050000E+02  6.2326807E+02
 2.1150000E+02  6.2110565E+02
 2.1250000E+02  6.2041211E+02
 2.1350000E+02  6.2685028E+02
 2.1450000E+02  6.3161182E+02
 2.1550000E+02  6.3568939E+02
 2.1650000E+02  6.3716040E+02
 2.1750000E+02  6.3887793E+02
 2.1850000E+02  6.3310193E+02
 2.1950000E+02  6.4173175E+02
 2.2050000E+02  6.4709406E+02
 2.2150000E+02  6.6842804E+02
 2.2250000E+02  6.8375647E+02
 2.2350000E+02  6.9763367E+02
 2.2450000E+02  7.1203369E+02
 2.2550000E+02  7.2919629E+02
 2.2650000E+02  7.4500262E+02
 2.2750000E+02  7.6520276E+02
 2.2850000E+02  7.7218488E+02
 2.2950000E+02  7.8742206E+02
 2.3050000E+02  8.0807904E+02
 2.3150000E+02  8.4636310E+02
 2.3250000E+02  8.6396625E+02
 2.3350000E+02  8.8103430E+02
 2.3450000E+02  9.1972119E+02
 2.3550000E+02  9.5987457E+02
 2.3650000E+02  9.8920258E+02
 2.3750000E+02  1.0064612E+03
 2.3850000E+02  1.0426278E+03
 2.3950000E+02  1.0840603E+03
 2.4050000E+02  1.1228920E+03
 2.4150000E+02  1.1555072E+03
 2.4250000E+02  1.1994436E+03
 2.4350000E+02  1.2460533E+03
 2.4450000E+02  1.2753167E+03
 2.4550000E+02  1.3230745E+03
 2.4650000E+02  1.3981256E+03
 2.4750000E+02  1.4541780E+03
 2.4850000E+02  1.4978971E+03
 2.4950000E+02  1.5554528E+03
 2.5050000E+02  1.6103175E+03
 2.5150000E+02  1.6629583E+03
 2.5250000E+02  1.6831110E+03
 2.5350000E+02  1.7102172E+03
 2.5450000E+02  1.7655844E+03
 2.5550000E+02  1.8072340E+03
 2.5650000E+02  1.8266499E+03
 2.5750000E+02  1.8719930E+03
 2.5850000E+02  1.8960594E+03
 2.5950000E+02  1.8984629E+03
 2.6050000E+02  1.9122578E+03
 2.6150000E+02  1.9325470E+03
 2.6250000E+02  1.9198042E+03
 2.6350000E+02  1.7155348E+03
 2.6450000E+02  1.2666221E+03
 2.6550000E+02  8.9035168E+02
 2.6650000E+02  6.3965820E+02
 2.6750000E+02  4.7578033E+02
 2.6850000E+02  3.6094070E+02
 2.6950000E+02  2.6998334E+02
 2.7050000E+02  2.0840227E+02
 2.7150000E+02  1.6104395E+02
 2.7250000E+02  1.3130214E+02
 2.7350000E+02  1.2156773E+02
 2.7450000E+02  1.1262257E+02
 2.7550000E+02  1.0830120E+02
 2.7650000E+02  1.0490158E+02
 2.7750000E+02  1.0482619E+02
 2.7850000E+02  1.0419475E+02
 2.7950000E+02  1.0548770E+02
 2.8050000E+02  1.0623452E+02
 2.8150000E+02  1.0327583E+02
 2.8250000E+02  1.0352271E+02
 2.8350000E+02  1.0456702E+02
 2.8450000E+02  1.0582816E+02
 2.8550000E+02  1.0600475E+02
 2.8650000E+02  1.0436778E+02
 2.8750000E+02  1.0447860E+02
 2.8850000E+02  1.0473380E+02
 2.8950000E+02  1.0520283E+02
 2.9050000E+02  1.0536428E+02
 2.9150000E+02  1.0391192E+02
 2.9250000E+02  1.0436648E+02
 2.9350000E+02  1.0497107E+02
 2.9450000E+02  1.0523700E+02
 2.9550000E+02  1.0720435E+02
 2.9650000E+02  1.0649716E+02
 2.9750000E+02  1.0613599E+02
 2.9850000E+02  1.0471706E+02
 2.9950000E+02  1.0445853E+02
 3.0050000E+02  1.0437474E+02
 3.0150000E+02  1.0360327E+02
 3.0250000E+02  1.0485874E+02
 3.0350000E+02  1.0362010E+02
 3.0450000E+02  1.0666365E+02
 3.0550000E+02  1.0744454E+02
 3.0650000E+02  1.0476588E+02
 3.0750000E+02  1.0535794E+02
 3.0850000E+02  1.0437394E+02
 3.0950000E+02  1.0522304E+02
 3.1050000E+02  1.0670705E+02
 3.1150000E+02  1.0600546E+02
 3.1250000E+02  1.0400695E+02
 3.1350000E+02  1.0404791E+02
 3.1450000E+02  1.0412842E+02
 3.1550000E+02  1.0379324E+02
 3.1650000E+02  1.0467911E+02
 3.1750000E+02  1.0393166E+02
 3.1850000E+02  1.0339259E+02
 3.1950000E+02  1.0552805E+02
 3.2050000E+02  1.0410432E+02
 3.2150000E+02  1.0481323E+02
 3.2250000E+02  1.0610739E+02
 3.2350000E+02  1.0243393E+02
 3.2450000E+02  1.0531279E+02
 3.2550000E+02  1.0444668E+02
 3.2650000E+02  1.0413962E+02
 3.2750000E+02  1.0323385E+02
 3.2850000E+02  1.0575039E+02
 3.2950000E+02  1.0584765E+02
 3.3050000E+02  1.0587277E+02
 3.3150000E+02  1.0596552E+02
 3.3250000E+02  1.0419250E+02
 3.3350000E+02  1.0524215E+02
 3.3450000E+02  1.0395450E+02
 3.3550000E+02  1.0283612E+02
 3.3650000E+02  1.0304591E+02
 3.3750000E+02  1.0558027E+02
 3.3850000E+02  1.0562453E+02
 3.3950000E+02  1.0622176E+02
 3.4050000E+02  1.0571690E+02
 3.4150000E+02  1.0417113E+02
 3.4250000E+02  1.0521520E+02
 3.4350000E+02  1.0389552E+02
 3.4450000E+02  1.0348507E+02
 3.4550000E+02  1.0523473E+02
 3.4650000E+02  1.1240525E+02
 3.4750000E+02  1.2464185E+02
 3.4850000E+02  1.3555835E+02
 3.4950000E+02  1.5121869E+02
 3.5050000E+02  1.8035014E+02
 3.5150000E+02  1.9512518E+02
 3.5250000E+02  2.0686276E+02
 3.5350000E+02  2.3393192E+02
 3.5450000E+02  2.7613712E+02
 3.5550000E+02  3.1768243E+02
 3.5650000E+02  3.8359866E+02
 3.5750000E+02  4.6213376E+02
 3.5850000E+02  5.5640778E+02
 3.5950000E+02  6.6266840E+02
 3.6050000E+02  8.0593042E+02
 3.6150000E+02  1.0131198E+03
 3.6250000E+02  1.3668579E+03
 3.6350000E+02  1.7546516E+03
 3.6450000E+02  1.9161854E+03
 3.6550000E+02  1.9106278E+03
 3.6650000E+02  1.8918636E+03
 3.6750000E+02  1.8888016E+03
 3.6850000E+02  1.8738571E+03
 3.6950000E+02  1.8461172E+03
 3.7050000E+02  1.8252649E+03
 3.7150000E+02  1.8133420E+03
 3.7250000E+02  1.7587798E+03
 3.7350000E+02  1.7142845E+03
 3.7450000E+02  1.6859318E+03
 3.7550000E+02  1.6534349E+03
 3.7650000E+02  1.6142036E+03
 3.7750000E+02  1.5695118E+03
 3.7850000E+02  1.5157578E+03
 3.7950000E+02  1.4544896E+03
 3.8050000E+02  1.3912963E+03
 3.8150000E+02  1.3374049E+03
 3.8250000E+02  1.2916626E+03
 3.8350000E+02  1.2560212E+03
 3.8450000E+02  1.2216259E+03
 3.8550000E+02  1.1863970E+03
 3.8650000E+02  1.1351917E+03
 3.8750000E+02  1.0882935E+03
 3.8850000E+02  1.0569001E+03
 3.8950000E+02  1.0157674E+03
 3.9050000E+02  9.7635321E+02
 3.9150000E+02  9.4981335E+02
 3.9250000E+02  9.2327692E+02
 3.9350000E+02  9.0447852E+02
 3.9450000E+02  8.6471906E+02
 3.9550000E+02  8.3536359E+02
 3.9650000E+02  8.2958984E+02
 3.9750000E+02  8.0213428E+02
 3.9850000E+02  7.8266998E+02
 3.9950000E+02  7.6796503E+02
 4.0050000E+02  7.5693701E+02
 4.0150000E+02  7.4089069E+02
 4.0250000E+02  7.1469385E+02
 4.0350000E+02  6.9984662E+02
 4.0450000E+02  6.8409094E+02
 4.0550000E+02  6.7586218E+02
 4.0650000E+02  6.7181531E+02
 4.0750000E+02  6.6476251E+02
 4.0850000E+02  6.5036145E+02
 4.0950000E+02  6.3438708E+02
 4.1050000E+02  6.2342651E+02
 4.1150000E+02  6.2764612E+02
 4.1250000E+02  6.2054840E+02
 4.1350000E+02  6.1774121E+02
 4.1450000E+02  6.1256635E+02
 4.1550000E+02  6.1444135E+02
 4.1650000E+02  6.1421484E+02
 4.1750000E+02  6.2344360E+02
 4.1850000E+02  6.3623309E+02
 4.1950000E+02  6.5861963E+02
 4.2050000E+02  6.6589240E+02
 4.2150000E+02  6.7342499E+02
 4.2250000E+02  7.0258557E+02
 4.2350000E+02  7.3893054E+02
 4.2450000E+02  7.8227014E+02
 4.2550000E+02  8.3196106E+02
 4.2650000E+02  8.9945074E+02
 4.2750000E+02  9.5194922E+02
 4.2850000E+02  9.8285413E+02
 4.2950000E+02  9.9310486E+02
 4.3050000E+02  1.0124284E+03
 4.3150000E+02  1.0038659E+03
 4.3250000E+02  9.6604889E+02
 4.3350000E+02  9.1180426E+02
 4.3450000E+02  8.5701624E+02
 4.3550000E+02  8.0291974E+02
 4.3650000E+02  7.5074042E+02
 4.3750000E+02  7.0453455E+02
 4.3850000E+02  6.5454010E+02
 4.3950000E+02  6.2727814E+02
 4.4050000E+02  5.9478302E+02
 4.4150000E+02  5.6769794E+02
 4.4250000E+02  5.5310101E+02
 4.4350000E+02  5.2868994E+02
 4.4450000E+02  4.9527737E+02
 4.4550000E+02  4.8449640E+02
 4.4650000E+02  4.7918250E+02
 4.4750000E+02  4.7184525E+02
 4.4850000E+02  4.5427289E+02
 4.4950000E+02  4.4255435E+02
 4.5050000E+02  4.3913275E+02
 4.5150000E+02  4.3105923E+02
 4.5250000E+02  4.2083151E+02
 4.5350000E+02  4.1494193E+02
 4.5450000E+02  4.0658997E+02
 4.5550000E+02  4.0450336E+02
 4.5650000E+02  4.0816428E+02
 4.5750000E+02  3.9563376E+02
 4.5850000E+02  3.9672641E+02
 4.5950000E+02  3.8540991E+02
 4.6050000E+02  3.7826208E+02
 4.6150000E+02  3.7215976E+02
 4.6250000E+02  3.7641611E+02
 4.6350000E+02  3.7576270E+02
 4.6450000E+02  3.7043997E+02
 4.6550000E+02  3.6636444E+02
 4.6650000E+02  3.6567462E+02
 4.6750000E+02  3.6381842E+02
 4.6850000E+02  3.6342700E+02
 4.6950000E+02  3.5858691E+02
 4.7050000E+02  3.5187308E+02
 4.7150000E+02  3.4837100E+02
 4.7250000E+02  3.4838467E+02
 4.7350000E+02  3.3936725E+02
 4.7450000E+02  3.3987378E+02
 4.7550000E+02  3.4109625E+02
 4.7650000E+02  3.4108279E+02
 4.7750000E+02  3.4382742E+02
 4.7850000E+02  3.3755743E+02
 4.7950000E+02  3.4381555E+02
 4.8050000E+02  3.4675406E+02
 4.8150000E+02  3.4543057E+02
 4.8250000E+02  3.4263800E+02
 4.8350000E+02  3.4405722E+02
 4.8450000E+02  3.4726801E+02
 4.8550000E+02  3.4245261E+02
 4.8650000E+02  3.4480942E+02
 4.8750000E+02  3.4304477E+02
 4.8850000E+02  3.3631927E+02
 4.8950000E+02  3.3098871E+02
 4.9050000E+02  3.3508948E+02
 4.9150000E+02  3.4042612E+02
 4.9250000E+02  3.3813651E+02
 4.9350000E+02  3.3081531E+02
 4.9450000E+02  3.3336334E+02
 4.9550000E+02  3.4056287E+02
 4.9650000E+02  3.3907422E+02
 4.9750000E+02  3.3931082E+02
 4.9850000E+02  3.4598325E+02
 4.9950000E+02  3.4230353E+02
 5.0050000E+02  3.3746484E+02
 5.0150000E+02  3.3676575E+02
 5.0250000E+02  3.4526822E+02
 5.0350000E+02  3.5149442E+02
 5.0450000E+02  3.4750778E+02
 5.0550000E+02  3.5463156E+02
 5.0650000E+02  3.5825500E+02
 5.0750000E+02  3.6183160E+02
 5.0850000E+02  3.6478973E+02
 5.0950000E+02  3.6634039E+02
 5.1050000E+02  3.7193906E+02
 5.1150000E+02  3.7629550E+02
 5.1250000E+02  4.3478098E+02
 5.1350000E+02  4.1031668E+02
 5.1450000E+02  3.9358017E+02
 5.1550000E+02  3.8640448E+02
 5.1650000E+02  3.8454410E+02
 5.1750000E+02  3.8383612E+02
 5.1850000E+02  3.8098486E+02
 5.1950000E+02  3.7879987E+02
 5.2050000E+02  3.7140353E+02
 5.2150000E+02  3.6217636E+02
 5.2250000E+02  3.5026926E+02
 5.2350000E+02  3.3684030E+02
 5.2450000E+02  3.3546552E+02
 5.2550000E+02  3.3092749E+02
 5.2650000E+02  3.1272086E+02
 5.2750000E+02  3.0166998E+02
 5.2850000E+02  2.9907349E+02
 5.2950000E+02  2.9764587E+02
 5.3050000E+02  2.9504633E+02
 5.3150000E+02  2.8783963E+02
 5.3250000E+02  2.8143875E+02
 5.3350000E+02  2.7930908E+02
 5.3450000E+02  2.7634567E+02
 5.3550000E+02  2.7316656E+02
 5.3650000E+02  2.6890076E+02
 5.3750000E+02  2.6596362E+02
 5.3850000E+02  2.6170474E+02
 5.3950000E+02  2.5744119E+02
 5.4050000E+02  2.5441428E+02
 5.4150000E+02  2.5147733E+02
 5.4250000E+02  2.5167857E+02
 5.4350000E+02  2.5765082E+02
 5.4450000E+02  2.5145876E+02
 5.4550000E+02  2.4903053E+02
 5.4650000E+02  2.4535519E+02
 5.4750000E+02  2.4617500E+02
 5.4850000E+02  2.4727519E+02
 5.4950000E+02  2.4769183E+02
 5.5050000E+02  2.4528568E+02
 5.5150000E+02  2.4937480E+02
 5.5250000E+02  2.4958180E+02
 5.5350000E+02  2.4212924E+02
 5.5450000E+02  2.4177129E+02
 5.5550000E+02  2.4421487E+02
 5.5650000E+02  2.4740332E+02
 5.5750000E+02  2.4878035E+02
 5.5850000E+02  2.4610269E+02
 5.5950000E+02  2.4354158E+02
 5.6050000E+02  2.4331636E+02
 5.6150000E+02  2.3864751E+02
 5.6250000E+02  2.3477415E+02
 5.6350000E+02  2.3459972E+02
 5.6450000E+02  2.3185153E+02
 5.6550000E+02  2.2917520E+02
 5.6650000E+02  2.2775267E+02
 5.6750000E+02  2.3001631E+02
 5.6850000E+02  2.3262996E+02
 5.6950000E+02  2.3447115E+02
 5.7050000E+02  2.3679167E+02
 5.7150000E+02  2.3243526E+02
 5.7250000E+02  2.2450777E+02
 5.7350000E+02  2.2755096E+02
 5.7450000E+02  2.2685170E+02
 5.7550000E+02  2.2486871E+02
 5.7650000E+02  2.2315994E+02
 5.7750000E+02  2.2418687E+02
 5.7850000E+02  2.2627805E+02
 5.7950000E+02  2.2289784E+02
 5.8050000E+02  2.2533531E+02
 5.8150000E+02  2.2706125E+02
 5.8250000E+02  2.3051199E+02
 5.8350000E+02  2.2600250E+02
 5.8450000E+02  2.1595244E+02
 5.8550000E+02  2.1564516E+02
 5.8650000E+02  2.1690533E+02
 5.8750000E+02  2.1606039E+02
 5.8850000E+02  2.1754449E+02
 5.8950000E+02  2.1749422E+02
 5.9050000E+02  2.1616972E+02
 5.9150000E+02  2.1229318E+02
 5.9250000E+02  2.0912819E+02
 5.9350000E+02  2.1524759E+02
 5.9450000E+02  2.1972493E+02
 5.9550000E+02  2.2038750E+02
 5.9650000E+02  2.1635477E+02
 5.9750000E+02  2.1538490E+02
 5.9850000E+02  2.1934262E+02
 5.9950000E+02  2.1970224E+02
 6.0050000E+02  2.2060245E+02
 6.0150000E+02  2.2422972E+02
 6.0250000E+02  2.2076950E+02
 6.0350000E+02  2.1772119E+02
 6.0450000E+02  2.1533250E+02
 6.0550000E+02  2.1693381E+02
 6.0650000E+02  2.2018265E+02
 6.0750000E+02  2.2178885E+02
 6.0850000E+02  2.1833704E+02
 6.0950000E+02  2.1595912E+02
 6.1050000E+02  2.1009604E+02
 6.1150000E+02  2.0850342E+02
 6.1250000E+02  2.1028342E+02
 6.1350000E+02  2.1377167E+02
 6.1450000E+02  2.1007210E+02
 6.1550000E+02  2.0827632E+02
 6.1650000E+02  2.1351445E+02
 6.1750000E+02  2.2074565E+02
 6.1850000E+02  2.1945375E+02
 6.1950000E+02  2.1502589E+02
 6.2050000E+02  2.1140260E+02
 6.2150000E+02  2.1250751E+02
 6.2250000E+02  2.1387416E+02
 6.2350000E+02  2.1380977E+02
 6.2450000E+02  2.1612434E+02
 6.2550000E+02  2.0864235E+02
 6.2650000E+02  2.0473996E+02
 6.2750000E+02  2.0840933E+02
 6.2850000E+02  2.1727263E+02
