1-D Projection: /home/liu/deTombe2008-1/Farman_0004.smv
Pixels
Intensity
        662
 5.0000000E-01  1.9860852E+02
 1.5000000E+00  2.8123611E+02
 2.5000000E+00  4.5408548E+02
 3.5000000E+00  2.0314603E+02
 4.5000000E+00  2.0209152E+02
 5.5000000E+00  1.9986790E+02
 6.5000000E+00  2.0741229E+02
 7.5000000E+00  2.0918027E+02
 8.5000000E+00  2.0923628E+02
 9.5000000E+00  2.0949332E+02
 1.0500000E+01  2.1087196E+02
 1.1500000E+01  2.0742255E+02
 1.2500000E+01  2.0604100E+02
 1.3500000E+01  2.0440480E+02
 1.4500000E+01  2.0224066E+02
 1.5500000E+01  2.0414859E+02
 1.6500000E+01  2.1624898E+02
 1.7500000E+01  2.2129980E+02
 1.8500000E+01  2.1717274E+02
 1.9500000E+01  2.1818793E+02
 2.0500000E+01  2.1844327E+02
 2.1500000E+01  2.1717210E+02
 2.2500000E+01  2.1963770E+02
 2.3500000E+01  2.1669948E+02
 2.4500000E+01  2.1727402E+02
 2.5500000E+01  2.1962000E+02
 2.6500000E+01  2.1925020E+02
 2.7500000E+01  2.1850363E+02
 2.8500000E+01  2.2364589E+02
 2.9500000E+01  2.2716200E+02
 3.0500000E+01  2.2913434E+02
 3.1500000E+01  2.2456247E+02
 3.2500000E+01  2.1772040E+02
 3.3500000E+01  2.1809106E+02
 3.4500000E+01  2.1774673E+02
 3.5500000E+01  2.1740439E+02
 3.6500000E+01  2.1861868E+02
 3.7500000E+01  2.2017886E+02
 3.8500000E+01  2.1682861E+02
 3.9500000E+01  2.1570212E+02
 4.0500000E+01  2.1934338E+02
 4.1500000E+01  2.2310219E+02
 4.2500000E+01  2.2438037E+02
 4.3500000E+01  2.1954640E+02
 4.4500000E+01  2.2251099E+02
 4.5500000E+01  2.2151515E+02
 4.6500000E+01  2.2254323E+02
 4.7500000E+01  2.2435895E+02
 4.8500000E+01  2.2578876E+02
 4.9500000E+01  2.2786436E+02
 5.0500000E+01  2.3132320E+02
 5.1500000E+01  2.2557889E+02
 5.2500000E+01  2.2658368E+02
 5.3500000E+01  2.3030914E+02
 5.4500000E+01  2.2722179E+02
 5.5500000E+01  2.2798109E+02
 5.6500000E+01  2.2825635E+02
 5.7500000E+01  2.3634674E+02
 5.8500000E+01  2.3461276E+02
 5.9500000E+01  2.2819043E+02
 6.0500000E+01  2.2716701E+02
 6.1500000E+01  2.2747858E+02
 6.2500000E+01  2.2892664E+02
 6.3500000E+01  2.3173705E+02
 6.4500000E+01  2.3505838E+02
 6.5500000E+01  2.3432339E+02
 6.6500000E+01  2.3220708E+02
 6.7500000E+01  2.3247592E+02
 6.8500000E+01  2.3673285E+02
 6.9500000E+01  2.3228954E+02
 7.0500000E+01  2.3156619E+02
 7.1500000E+01  2.3685136E+02
 7.2500000E+01  2.4326332E+02
 7.3500000E+01  2.4534843E+02
 7.4500000E+01  2.4147365E+02
 7.5500000E+01  2.3629332E+02
 7.6500000E+01  2.4241156E+02
 7.7500000E+01  2.4331126E+02
 7.8500000E+01  2.4179843E+02
 7.9500000E+01  2.5139391E+02
 8.0500000E+01  2.4630157E+02
 8.1500000E+01  2.4091257E+02
 8.2500000E+01  2.4552620E+02
 8.3500000E+01  2.4913689E+02
 8.4500000E+01  2.5420595E+02
 8.5500000E+01  2.5230167E+02
 8.6500000E+01  2.4616713E+02
 8.7500000E+01  2.4571471E+02
 8.8500000E+01  2.5292163E+02
 8.9500000E+01  2.5642059E+02
 9.0500000E+01  2.6019260E+02
 9.1500000E+01  2.5736996E+02
 9.2500000E+01  2.5172623E+02
 9.3500000E+01  2.5164299E+02
 9.4500000E+01  2.5807736E+02
 9.5500000E+01  2.5813168E+02
 9.6500000E+01  2.5532123E+02
 9.7500000E+01  2.6657794E+02
 9.8500000E+01  2.6944202E+02
 9.9500000E+01  2.6958035E+02
 1.0050000E+02  2.6909058E+02
 1.0150000E+02  2.6698901E+02
 1.0250000E+02  2.7281674E+02
 1.0350000E+02  2.7810455E+02
 1.0450000E+02  2.8586807E+02
 1.0550000E+02  2.8686240E+02
 1.0650000E+02  2.8594522E+02
 1.0750000E+02  2.9576547E+02
 1.0850000E+02  3.0592288E+02
 1.0950000E+02  3.0822754E+02
 1.1050000E+02  3.1365668E+02
 1.1150000E+02  3.2471863E+02
 1.1250000E+02  3.3143869E+02
 1.1350000E+02  3.3656754E+02
 1.1450000E+02  3.3825897E+02
 1.1550000E+02  3.4076752E+02
 1.1650000E+02  3.4293405E+02
 1.1750000E+02  3.5250723E+02
 1.1850000E+02  3.6768552E+02
 1.1950000E+02  3.8255560E+02
 1.2050000E+02  3.9686465E+02
 1.2150000E+02  4.0907544E+02
 1.2250000E+02  4.0749670E+02
 1.2350000E+02  4.1166779E+02
 1.2450000E+02  4.2058215E+02
 1.2550000E+02  4.2962128E+02
 1.2650000E+02  4.3649866E+02
 1.2750000E+02  4.3390912E+02
 1.2850000E+02  4.3593384E+02
 1.2950000E+02  4.3279724E+02
 1.3050000E+02  4.2337698E+02
 1.3150000E+02  4.1156293E+02
 1.3250000E+02  4.0302420E+02
 1.3350000E+02  3.9387790E+02
 1.3450000E+02  3.8673932E+02
 1.3550000E+02  3.8998151E+02
 1.3650000E+02  3.9105743E+02
 1.3750000E+02  3.8324136E+02
 1.3850000E+02  3.7393497E+02
 1.3950000E+02  3.7150555E+02
 1.4050000E+02  3.8131189E+02
 1.4150000E+02  3.8374527E+02
 1.4250000E+02  3.7441849E+02
 1.4350000E+02  3.6989252E+02
 1.4450000E+02  3.6826059E+02
 1.4550000E+02  3.6948654E+02
 1.4650000E+02  3.7238425E+02
 1.4750000E+02  3.6684344E+02
 1.4850000E+02  3.7040625E+02
 1.4950000E+02  3.7458771E+02
 1.5050000E+02  3.6772266E+02
 1.5150000E+02  3.6200195E+02
 1.5250000E+02  3.7083966E+02
 1.5350000E+02  3.7030051E+02
 1.5450000E+02  3.6816782E+02
 1.5550000E+02  3.6576639E+02
 1.5650000E+02  3.7080066E+02
 1.5750000E+02  3.7027701E+02
 1.5850000E+02  3.7407870E+02
 1.5950000E+02  3.7369910E+02
 1.6050000E+02  3.7592535E+02
 1.6150000E+02  3.8515143E+02
 1.6250000E+02  3.8181046E+02
 1.6350000E+02  3.8395334E+02
 1.6450000E+02  3.8065076E+02
 1.6550000E+02  3.7050735E+02
 1.6650000E+02  3.7694080E+02
 1.6750000E+02  3.8857944E+02
 1.6850000E+02  3.8302023E+02
 1.6950000E+02  3.7802487E+02
 1.7050000E+02  3.7942224E+02
 1.7150000E+02  3.8674438E+02
 1.7250000E+02  3.9996021E+02
 1.7350000E+02  4.0790039E+02
 1.7450000E+02  4.0088589E+02
 1.7550000E+02  3.9382123E+02
 1.7650000E+02  3.9482516E+02
 1.7750000E+02  4.0094162E+02
 1.7850000E+02  4.1030106E+02
 1.7950000E+02  4.2466812E+02
 1.8050000E+02  4.2419775E+02
 1.8150000E+02  4.2367914E+02
 1.8250000E+02  4.2794885E+02
 1.8350000E+02  4.2768973E+02
 1.8450000E+02  4.3141501E+02
 1.8550000E+02  4.3846771E+02
 1.8650000E+02  4.4118076E+02
 1.8750000E+02  4.4151694E+02
 1.8850000E+02  4.4505481E+02
 1.8950000E+02  4.5416385E+02
 1.9050000E+02  4.7288852E+02
 1.9150000E+02  4.9021417E+02
 1.9250000E+02  4.9697211E+02
 1.9350000E+02  5.0403940E+02
 1.9450000E+02  5.3007880E+02
 1.9550000E+02  5.5000586E+02
 1.9650000E+02  5.5091840E+02
 1.9750000E+02  5.6108722E+02
 1.9850000E+02  5.9608856E+02
 1.9950000E+02  6.2947443E+02
 2.0050000E+02  6.5374438E+02
 2.0150000E+02  6.8244501E+02
 2.0250000E+02  7.1495892E+02
 2.0350000E+02  7.5312317E+02
 2.0450000E+02  8.0039203E+02
 2.0550000E+02  8.5491028E+02
 2.0650000E+02  9.0664490E+02
 2.0750000E+02  9.6392566E+02
 2.0850000E+02  1.0171550E+03
 2.0950000E+02  1.0783267E+03
 2.1050000E+02  1.1053322E+03
 2.1150000E+02  1.1174270E+03
 2.1250000E+02  1.1193453E+03
 2.1350000E+02  1.1024028E+03
 2.1450000E+02  1.0609240E+03
 2.1550000E+02  9.8641431E+02
 2.1650000E+02  9.1142822E+02
 2.1750000E+02  8.5515344E+02
 2.1850000E+02  8.2195966E+02
 2.1950000E+02  7.7768036E+02
 2.2050000E+02  7.4197388E+02
 2.2150000E+02  7.1685303E+02
 2.2250000E+02  6.9393353E+02
 2.2350000E+02  6.8340411E+02
 2.2450000E+02  6.8423206E+02
 2.2550000E+02  6.7795203E+02
 2.2650000E+02  6.7463306E+02
 2.2750000E+02  6.6247058E+02
 2.2850000E+02  6.6435553E+02
 2.2950000E+02  6.7917242E+02
 2.3050000E+02  6.7997034E+02
 2.3150000E+02  6.7723181E+02
 2.3250000E+02  6.7895410E+02
 2.3350000E+02  6.9825024E+02
 2.3450000E+02  7.0538330E+02
 2.3550000E+02  7.1794543E+02
 2.3650000E+02  7.2599451E+02
 2.3750000E+02  7.4621033E+02
 2.3850000E+02  7.6925787E+02
 2.3950000E+02  7.7368176E+02
 2.4050000E+02  7.9200439E+02
 2.4150000E+02  8.1585413E+02
 2.4250000E+02  8.3707831E+02
 2.4350000E+02  8.6180005E+02
 2.4450000E+02  8.9282648E+02
 2.4550000E+02  9.4324127E+02
 2.4650000E+02  9.5602277E+02
 2.4750000E+02  9.8283527E+02
 2.4850000E+02  1.0141057E+03
 2.4950000E+02  1.0550328E+03
 2.5050000E+02  1.0956172E+03
 2.5150000E+02  1.1306982E+03
 2.5250000E+02  1.2023650E+03
 2.5350000E+02  1.2525345E+03
 2.5450000E+02  1.2937253E+03
 2.5550000E+02  1.3205914E+03
 2.5650000E+02  1.3566910E+03
 2.5750000E+02  1.4409492E+03
 2.5850000E+02  1.4853763E+03
 2.5950000E+02  1.5475873E+03
 2.6050000E+02  1.6201439E+03
 2.6150000E+02  1.6619758E+03
 2.6250000E+02  1.7044209E+03
 2.6350000E+02  1.7618234E+03
 2.6450000E+02  1.8330748E+03
 2.6550000E+02  1.8906666E+03
 2.6650000E+02  1.9278557E+03
 2.6750000E+02  1.9503705E+03
 2.6850000E+02  1.9929977E+03
 2.6950000E+02  2.0163804E+03
 2.7050000E+02  2.0525020E+03
 2.7150000E+02  2.0980784E+03
 2.7250000E+02  2.1197222E+03
 2.7350000E+02  2.1358728E+03
 2.7450000E+02  2.1632390E+03
 2.7550000E+02  2.1756702E+03
 2.7650000E+02  2.1086360E+03
 2.7750000E+02  1.7740673E+03
 2.7850000E+02  1.2513258E+03
 2.7950000E+02  8.2523602E+02
 2.8050000E+02  5.4395398E+02
 2.8150000E+02  3.7761124E+02
 2.8250000E+02  2.6517310E+02
 2.8350000E+02  1.6852850E+02
 2.8450000E+02  1.2443883E+02
 2.8550000E+02  1.0810847E+02
 2.8650000E+02  1.0373981E+02
 2.8750000E+02  1.0266297E+02
 2.8850000E+02  1.0240278E+02
 2.8950000E+02  1.0107072E+02
 2.9050000E+02  9.8118446E+01
 2.9150000E+02  9.9266823E+01
 2.9250000E+02  9.8204735E+01
 2.9350000E+02  9.9322380E+01
 2.9450000E+02  9.8706009E+01
 2.9550000E+02  9.8180878E+01
 2.9650000E+02  9.7902962E+01
 2.9750000E+02  9.8598282E+01
 2.9850000E+02  9.8385086E+01
 2.9950000E+02  1.0010010E+02
 3.0050000E+02  9.9680214E+01
 3.0150000E+02  9.9496887E+01
 3.0250000E+02  1.0010036E+02
 3.0350000E+02  1.0140306E+02
 3.0450000E+02  1.0105413E+02
 3.0550000E+02  9.8846489E+01
 3.0650000E+02  9.8791313E+01
 3.0750000E+02  1.0031635E+02
 3.0850000E+02  1.0047270E+02
 3.0950000E+02  1.0104723E+02
 3.1050000E+02  9.8180428E+01
 3.1150000E+02  1.0002018E+02
 3.1250000E+02  9.9611153E+01
 3.1350000E+02  1.0074340E+02
 3.1450000E+02  9.6690178E+01
 3.1550000E+02  9.6948380E+01
 3.1650000E+02  1.0016577E+02
 3.1750000E+02  9.9473457E+01
 3.1850000E+02  1.0067097E+02
 3.1950000E+02  9.8695641E+01
 3.2050000E+02  9.7999596E+01
 3.2150000E+02  9.9735886E+01
 3.2250000E+02  1.0008983E+02
 3.2350000E+02  9.9762100E+01
 3.2450000E+02  9.9142395E+01
 3.2550000E+02  9.9500710E+01
 3.2650000E+02  9.7583450E+01
 3.2750000E+02  9.7819054E+01
 3.2850000E+02  9.7642731E+01
 3.2950000E+02  9.8463608E+01
 3.3050000E+02  9.8452637E+01
 3.3150000E+02  9.7304565E+01
 3.3250000E+02  9.8073799E+01
 3.3350000E+02  9.8351105E+01
 3.3450000E+02  9.8006454E+01
 3.3550000E+02  9.6983902E+01
 3.3650000E+02  9.7168541E+01
 3.3750000E+02  9.4498260E+01
 3.3850000E+02  9.8878319E+01
 3.3950000E+02  9.9255562E+01
 3.4050000E+02  9.8128319E+01
 3.4150000E+02  9.7194382E+01
 3.4250000E+02  9.9186058E+01
 3.4350000E+02  1.0006390E+02
 3.4450000E+02  9.9893791E+01
 3.4550000E+02  9.7820366E+01
 3.4650000E+02  9.7902901E+01
 3.4750000E+02  9.8300545E+01
 3.4850000E+02  9.7729668E+01
 3.4950000E+02  9.7401886E+01
 3.5050000E+02  9.8700142E+01
 3.5150000E+02  9.9378883E+01
 3.5250000E+02  9.8792877E+01
 3.5350000E+02  9.7413254E+01
 3.5450000E+02  9.7077408E+01
 3.5550000E+02  9.8813095E+01
 3.5650000E+02  1.0073702E+02
 3.5750000E+02  9.8561188E+01
 3.5850000E+02  9.8680908E+01
 3.5950000E+02  9.9495117E+01
 3.6050000E+02  1.0134410E+02
 3.6150000E+02  9.9876274E+01
 3.6250000E+02  1.0018453E+02
 3.6350000E+02  1.0068937E+02
 3.6450000E+02  1.0179903E+02
 3.6550000E+02  9.9684921E+01
 3.6650000E+02  9.9719673E+01
 3.6750000E+02  1.0066110E+02
 3.6850000E+02  1.0111462E+02
 3.6950000E+02  1.1042275E+02
 3.7050000E+02  1.4705632E+02
 3.7150000E+02  2.1653156E+02
 3.7250000E+02  3.0690744E+02
 3.7350000E+02  4.6812308E+02
 3.7450000E+02  6.7310052E+02
 3.7550000E+02  9.8027631E+02
 3.7650000E+02  1.5171863E+03
 3.7750000E+02  2.0002163E+03
 3.7850000E+02  2.1322256E+03
 3.7950000E+02  2.1274585E+03
 3.8050000E+02  2.1334209E+03
 3.8150000E+02  2.1237847E+03
 3.8250000E+02  2.0818193E+03
 3.8350000E+02  2.0747661E+03
 3.8450000E+02  2.0492307E+03
 3.8550000E+02  2.0127365E+03
 3.8650000E+02  1.9909360E+03
 3.8750000E+02  1.9593403E+03
 3.8850000E+02  1.8912148E+03
 3.8950000E+02  1.8361249E+03
 3.9050000E+02  1.8094030E+03
 3.9150000E+02  1.7655830E+03
 3.9250000E+02  1.7053010E+03
 3.9350000E+02  1.6297677E+03
 3.9450000E+02  1.5903462E+03
 3.9550000E+02  1.5510959E+03
 3.9650000E+02  1.4790464E+03
 3.9750000E+02  1.4129059E+03
 3.9850000E+02  1.3591053E+03
 3.9950000E+02  1.3127466E+03
 4.0050000E+02  1.2692178E+03
 4.0150000E+02  1.2305245E+03
 4.0250000E+02  1.1942075E+03
 4.0350000E+02  1.1411196E+03
 4.0450000E+02  1.0905201E+03
 4.0550000E+02  1.0521206E+03
 4.0650000E+02  1.0143945E+03
 4.0750000E+02  9.8589532E+02
 4.0850000E+02  9.4921729E+02
 4.0950000E+02  9.2592139E+02
 4.1050000E+02  9.0371338E+02
 4.1150000E+02  8.7320709E+02
 4.1250000E+02  8.4053101E+02
 4.1350000E+02  8.1266321E+02
 4.1450000E+02  7.9661304E+02
 4.1550000E+02  7.7695801E+02
 4.1650000E+02  7.5100397E+02
 4.1750000E+02  7.5175079E+02
 4.1850000E+02  7.4291553E+02
 4.1950000E+02  7.1899237E+02
 4.2050000E+02  7.0025281E+02
 4.2150000E+02  6.9808856E+02
 4.2250000E+02  6.9625958E+02
 4.2350000E+02  6.8561584E+02
 4.2450000E+02  6.7494464E+02
 4.2550000E+02  6.7130078E+02
 4.2650000E+02  6.7822968E+02
 4.2750000E+02  6.8546149E+02
 4.2850000E+02  6.8502014E+02
 4.2950000E+02  6.9197217E+02
 4.3050000E+02  6.8847394E+02
 4.3150000E+02  6.9823639E+02
 4.3250000E+02  7.1338916E+02
 4.3350000E+02  7.3708026E+02
 4.3450000E+02  7.5776776E+02
 4.3550000E+02  7.7166858E+02
 4.3650000E+02  8.0334576E+02
 4.3750000E+02  8.5287415E+02
 4.3850000E+02  9.1706696E+02
 4.3950000E+02  9.6559625E+02
 4.4050000E+02  1.0233049E+03
 4.4150000E+02  1.0780715E+03
 4.4250000E+02  1.0983604E+03
 4.4350000E+02  1.1126533E+03
 4.4450000E+02  1.1036809E+03
 4.4550000E+02  1.0749604E+03
 4.4650000E+02  1.0402313E+03
 4.4750000E+02  9.9237378E+02
 4.4850000E+02  9.2918146E+02
 4.4950000E+02  8.8777673E+02
 4.5050000E+02  8.2931934E+02
 4.5150000E+02  7.7046533E+02
 4.5250000E+02  7.2173254E+02
 4.5350000E+02  6.7896960E+02
 4.5450000E+02  6.4606830E+02
 4.5550000E+02  6.2517645E+02
 4.5650000E+02  6.0574200E+02
 4.5750000E+02  5.8145868E+02
 4.5850000E+02  5.5531317E+02
 4.5950000E+02  5.4300055E+02
 4.6050000E+02  5.3003516E+02
 4.6150000E+02  5.1399518E+02
 4.6250000E+02  4.9651212E+02
 4.6350000E+02  4.7658417E+02
 4.6450000E+02  4.6843030E+02
 4.6550000E+02  4.6470996E+02
 4.6650000E+02  4.5926633E+02
 4.6750000E+02  4.6091019E+02
 4.6850000E+02  4.4950266E+02
 4.6950000E+02  4.4298953E+02
 4.7050000E+02  4.3397052E+02
 4.7150000E+02  4.2679492E+02
 4.7250000E+02  4.3348404E+02
 4.7350000E+02  4.2821732E+02
 4.7450000E+02  4.1858951E+02
 4.7550000E+02  4.1508707E+02
 4.7650000E+02  4.1459558E+02
 4.7750000E+02  4.0845090E+02
 4.7850000E+02  4.0322345E+02
 4.7950000E+02  4.0140894E+02
 4.8050000E+02  4.0660437E+02
 4.8150000E+02  4.0235379E+02
 4.8250000E+02  3.9505353E+02
 4.8350000E+02  4.0482147E+02
 4.8450000E+02  4.0051425E+02
 4.8550000E+02  3.8714661E+02
 4.8650000E+02  3.8176587E+02
 4.8750000E+02  3.9072977E+02
 4.8850000E+02  3.8826926E+02
 4.8950000E+02  3.8949463E+02
 4.9050000E+02  3.8573657E+02
 4.9150000E+02  3.8700717E+02
 4.9250000E+02  3.8698138E+02
 4.9350000E+02  3.8480286E+02
 4.9450000E+02  3.7783334E+02
 4.9550000E+02  3.7582364E+02
 4.9650000E+02  3.6738101E+02
 4.9750000E+02  3.6599814E+02
 4.9850000E+02  3.6644470E+02
 4.9950000E+02  3.7005865E+02
 5.0050000E+02  3.7200616E+02
 5.0150000E+02  3.7823889E+02
 5.0250000E+02  3.8035944E+02
 5.0350000E+02  3.8150543E+02
 5.0450000E+02  3.7663910E+02
 5.0550000E+02  3.6784976E+02
 5.0650000E+02  3.6813971E+02
 5.0750000E+02  3.7430331E+02
 5.0850000E+02  3.7223630E+02
 5.0950000E+02  3.7006464E+02
 5.1050000E+02  3.6770001E+02
 5.1150000E+02  3.7309763E+02
 5.1250000E+02  3.7500449E+02
 5.1350000E+02  3.7903351E+02
 5.1450000E+02  3.8653922E+02
 5.1550000E+02  3.9343021E+02
 5.1650000E+02  3.9109363E+02
 5.1750000E+02  3.9449039E+02
 5.1850000E+02  4.0465863E+02
 5.1950000E+02  4.1208298E+02
 5.2050000E+02  4.1119974E+02
 5.2150000E+02  4.1598776E+02
 5.2250000E+02  4.1449954E+02
 5.2350000E+02  4.1190936E+02
 5.2450000E+02  4.2032739E+02
 5.2550000E+02  4.3523514E+02
 5.2650000E+02  4.2729901E+02
 5.2750000E+02  4.2020038E+02
 5.2850000E+02  4.2485303E+02
 5.2950000E+02  4.2308780E+02
 5.3050000E+02  4.1873221E+02
 5.3150000E+02  4.1627020E+02
 5.3250000E+02  4.1488712E+02
 5.3350000E+02  3.9826862E+02
 5.3450000E+02  3.8788660E+02
 5.3550000E+02  3.7798041E+02
 5.3650000E+02  3.7320197E+02
 5.3750000E+02  3.6371368E+02
 5.3850000E+02  3.5495255E+02
 5.3950000E+02  3.4751068E+02
 5.4050000E+02  3.4178378E+02
 5.4150000E+02  3.4023892E+02
 5.4250000E+02  3.2692859E+02
 5.4350000E+02  3.2095908E+02
 5.4450000E+02  3.1670428E+02
 5.4550000E+02  3.1608017E+02
 5.4650000E+02  3.1145950E+02
 5.4750000E+02  2.9855032E+02
 5.4850000E+02  2.9156580E+02
 5.4950000E+02  2.8793268E+02
 5.5050000E+02  2.7762976E+02
 5.5150000E+02  2.7511115E+02
 5.5250000E+02  2.7690573E+02
 5.5350000E+02  2.8016998E+02
 5.5450000E+02  2.7620337E+02
 5.5550000E+02  2.6975647E+02
 5.5650000E+02  2.6984613E+02
 5.5750000E+02  2.6838559E+02
 5.5850000E+02  2.7133783E+02
 5.5950000E+02  2.6572427E+02
 5.6050000E+02  2.6164273E+02
 5.6150000E+02  2.6386371E+02
 5.6250000E+02  2.5850253E+02
 5.6350000E+02  2.6232452E+02
 5.6450000E+02  2.6545349E+02
 5.6550000E+02  2.5889233E+02
 5.6650000E+02  2.5054054E+02
 5.6750000E+02  2.4560823E+02
 5.6850000E+02  2.4742731E+02
 5.6950000E+02  2.4861948E+02
 5.7050000E+02  2.4629680E+02
 5.7150000E+02  2.4871873E+02
 5.7250000E+02  2.5017876E+02
 5.7350000E+02  2.4505042E+02
 5.7450000E+02  2.3961363E+02
 5.7550000E+02  2.3734526E+02
 5.7650000E+02  2.3866084E+02
 5.7750000E+02  2.4012526E+02
 5.7850000E+02  2.4553072E+02
 5.7950000E+02  2.4212254E+02
 5.8050000E+02  2.3790288E+02
 5.8150000E+02  2.3642888E+02
 5.8250000E+02  2.4489609E+02
 5.8350000E+02  2.3993040E+02
 5.8450000E+02  2.3659041E+02
 5.8550000E+02  2.3971068E+02
 5.8650000E+02  2.3732767E+02
 5.8750000E+02  2.3312123E+02
 5.8850000E+02  2.3391838E+02
 5.8950000E+02  2.3484831E+02
 5.9050000E+02  2.3552307E+02
 5.9150000E+02  2.3566661E+02
 5.9250000E+02  2.3185669E+02
 5.9350000E+02  2.3517984E+02
 5.9450000E+02  2.3975661E+02
 5.9550000E+02  2.3300092E+02
 5.9650000E+02  2.3066800E+02
 5.9750000E+02  2.2829521E+02
 5.9850000E+02  2.2152560E+02
 5.9950000E+02  2.1814743E+02
 6.0050000E+02  2.2132484E+02
 6.0150000E+02  2.1766971E+02
 6.0250000E+02  2.2107268E+02
 6.0350000E+02  2.2997275E+02
 6.0450000E+02  2.3492906E+02
 6.0550000E+02  2.3615295E+02
 6.0650000E+02  2.2697865E+02
 6.0750000E+02  2.2070097E+02
 6.0850000E+02  2.1603029E+02
 6.0950000E+02  2.2058856E+02
 6.1050000E+02  2.2316196E+02
 6.1150000E+02  2.2108961E+02
 6.1250000E+02  2.1754129E+02
 6.1350000E+02  2.2064439E+02
 6.1450000E+02  2.2129823E+02
 6.1550000E+02  2.2867676E+02
 6.1650000E+02  2.3372766E+02
 6.1750000E+02  2.2834686E+02
 6.1850000E+02  2.2592825E+02
 6.1950000E+02  2.2378671E+02
 6.2050000E+02  2.1741574E+02
 6.2150000E+02  2.1753697E+02
 6.2250000E+02  2.1372533E+02
 6.2350000E+02  2.1446413E+02
 6.2450000E+02  2.1829276E+02
 6.2550000E+02  2.2495305E+02
 6.2650000E+02  2.2689992E+02
 6.2750000E+02  2.2376631E+02
 6.2850000E+02  2.2150601E+02
 6.2950000E+02  2.2065294E+02
 6.3050000E+02  2.2715363E+02
 6.3150000E+02  2.3300661E+02
 6.3250000E+02  2.2442061E+02
 6.3350000E+02  2.2346951E+02
 6.3450000E+02  2.2472749E+02
 6.3550000E+02  2.1996472E+02
 6.3650000E+02  2.1460222E+02
 6.3750000E+02  2.1499687E+02
 6.3850000E+02  2.1550000E+02
 6.3950000E+02  2.1546947E+02
 6.4050000E+02  2.0944232E+02
 6.4150000E+02  2.0649519E+02
 6.4250000E+02  2.1231717E+02
 6.4350000E+02  2.1246696E+02
 6.4450000E+02  2.0374538E+02
 6.4550000E+02  2.0288139E+02
 6.4650000E+02  2.0379160E+02
 6.4750000E+02  2.0287091E+02
 6.4850000E+02  2.0092355E+02
 6.4950000E+02  2.0307550E+02
 6.5050000E+02  2.0185852E+02
 6.5150000E+02  2.0242816E+02
 6.5250000E+02  2.0199966E+02
 6.5350000E+02  2.0076443E+02
 6.5450000E+02  2.0277109E+02
 6.5550000E+02  1.9789116E+02
 6.5650000E+02  1.9367392E+02
 6.5750000E+02  1.9400743E+02
 6.5850000E+02  1.9931226E+02
 6.5950000E+02  2.0263635E+02
 6.6050000E+02  1.9827779E+02
 6.6150000E+02  1.9853723E+02
